id,x,y,v
0,-0.26457029581069946,-1.5402734279632568,3.1414196491241455
1,-0.3000585734844208,-1.640468716621399,3.289102792739868
2,-0.3336132764816284,-1.7458593845367432,3.412041187286377
3,-0.36427733302116394,-1.8558788299560547,3.524188995361328
4,-0.3918554484844208,-1.9702342748641968,3.6280834674835205
5,-0.4175390601158142,-2.0884764194488525,3.730205535888672
6,-0.44289061427116394,-2.210253953933716,3.8209593296051025
7,-0.4684765636920929,-2.335038900375366,3.923712968826294
8,-0.49460935592651367,-2.463202953338623,3.99212384223938
9,-0.5210937261581421,-2.593574047088623,4.083246231079102
10,-0.5481054782867432,-2.7269530296325684,4.131495475769043
11,-0.5753320455551147,-2.86187481880188,4.197458267211914
12,-0.6029882431030273,-2.9989452362060547,4.218846797943115
13,-0.6307030916213989,-3.136660099029541,4.255792617797852
14,-0.6586718559265137,-3.275585889816284,4.248250484466553
15,-0.689453125,-3.4135937690734863,4.242578029632568
16,-0.723925769329071,-3.5506248474121094,4.213580131530762
17,-0.7622851133346558,-3.685742139816284,4.1815876960754395
18,-0.8048437237739563,-3.818730354309082,4.145374774932861
19,-0.8517577648162842,-3.9492576122283936,4.155022621154785
20,-0.8976757526397705,-4.080331802368164,4.179440021514893
21,-0.9401757717132568,-4.213105201721191,4.212960243225098
22,-0.9795507788658142,-4.34792947769165,4.2587127685546875
23,-1.017519474029541,-4.484765529632568,4.309732437133789
24,-1.0551953315734863,-4.623456954956055,4.3578619956970215
25,-1.0930663347244263,-4.763789176940918,4.400557518005371
26,-1.1311328411102295,-4.905507564544678,4.430683612823486
27,-1.1694140434265137,-5.048202991485596,4.45314884185791
28,-1.2077734470367432,-5.191620826721191,4.465304374694824
29,-1.2462499141693115,-5.335390567779541,4.469005107879639
30,-1.28466796875,-5.479296684265137,4.469184398651123
31,-1.323144555091858,-5.623144626617432,4.4691314697265625
32,-1.3645312786102295,-5.76623010635376,4.47540807723999
33,-1.409706950187683,-5.90847635269165,4.49238920211792
34,-1.4591405391693115,-6.050117015838623,4.516607761383057
35,-1.51318359375,-6.191171646118164,4.544611930847168
36,-1.5720702409744263,-6.331562519073486,4.613190650939941
37,-1.6314843893051147,-6.474062442779541,4.69345760345459
38,-1.6882226467132568,-6.62023401260376,4.76602029800415
39,-1.7425585985183716,-6.769765377044678,4.837523460388184
40,-1.7958788871765137,-6.922128677368164,4.906174659729004
41,-1.8491991758346558,-7.076913833618164,4.970358848571777
42,-1.9029687643051147,-7.233769416809082,5.029491424560547
43,-1.9572265148162842,-7.392519474029541,5.092005729675293
44,-2.01171875,-7.55285120010376,5.136970043182373
45,-2.0642967224121094,-7.706386566162109,5.175832271575928
46,-2.119824171066284,-7.869863033294678,5.223936557769775
47,-2.1761131286621094,-8.034804344177246,5.210777282714844
48,-2.23193359375,-8.199198722839355,5.212493896484375
49,-2.287792921066284,-8.36361312866211,5.201395034790039
50,-2.3436522483825684,-8.527597427368164,5.1920976638793945
51,-2.3907811641693115,-8.666327476501465,5.194862365722656
52,-2.446601390838623,-8.830156326293945,5.182938575744629
53,-2.502148389816284,-8.993613243103027,5.174492835998535
54,-2.557753801345825,-9.1567964553833,5.165667533874512
55,-2.613105297088623,-9.319746017456055,5.1616926193237305
56,-2.6685545444488525,-9.482558250427246,5.155060291290283
57,-2.723828077316284,-9.645195007324219,5.1508402824401855
58,-2.7791404724121094,-9.807714462280273,5.144203186035156
59,-2.834277391433716,-9.970038414001465,5.135712623596191
60,-2.8871679306030273,-10.132831573486328,5.124094009399414
61,-2.937128782272339,-10.296191215515137,5.107729911804199
62,-2.983593702316284,-10.460058212280273,5.084147930145264
63,-3.026484251022339,-10.62417984008789,5.0467963218688965
64,-3.065859317779541,-10.787948608398438,5.024209022521973
65,-3.1010937690734863,-10.952070236206055,5.005446910858154
66,-3.135019540786743,-11.115741729736328,5.000288486480713
67,-3.1701366901397705,-11.2788667678833,4.995540618896484
68,-3.207714796066284,-11.441171646118164,5.021141529083252
69,-3.2884960174560547,-11.767870903015137,5.107343673706055
70,-3.330078125,-11.933124542236328,5.123186111450195
71,-3.372265577316284,-12.098750114440918,5.146880149841309
72,-3.4146482944488525,-12.26513671875,5.145684719085693
73,-3.457109212875366,-12.431347846984863,5.136459827423096
74,-3.500195264816284,-12.597030639648438,5.118862628936768
75,-3.5419530868530273,-12.762421607971191,5.106932640075684
76,-3.5849218368530273,-12.92708969116211,5.089098930358887
77,-3.6263279914855957,-13.091562271118164,5.077863693237305
78,-3.6690428256988525,-13.255311965942383,5.0581135749816895
79,-3.7082812786102295,-13.419257164001465,5.038671970367432
80,-3.7451367378234863,-13.583144187927246,5.022189617156982
81,-3.778496026992798,-13.747284889221191,4.985986709594727
82,-3.8084568977355957,-13.910898208618164,4.979211807250977
83,-3.8344335556030273,-14.075409889221191,4.978416442871094
84,-3.857187509536743,-14.240331649780273,4.9953436851501465
85,-3.8835155963897705,-14.404999732971191,5.001736164093018
86,-3.9130859375,-14.56917953491211,5.0075297355651855
87,-3.945683479309082,-14.732401847839355,5.009354591369629
88,-3.97710919380188,-14.896464347839355,4.993420124053955
89,-4.010546684265137,-15.059609413146973,4.987677574157715
90,-4.043339729309082,-15.22288990020752,4.986180782318115
91,-4.076327800750732,-15.385936737060547,4.984803676605225
92,-4.109375,-15.548867225646973,4.977715492248535
93,-4.139140605926514,-15.712128639221191,4.963444232940674
94,-4.164902210235596,-15.875663757324219,4.942133903503418
95,-4.186054706573486,-16.039257049560547,4.943465232849121
96,-4.209706783294678,-16.202421188354492,4.940310478210449
97,-4.236249923706055,-16.364959716796875,4.935824394226074
98,-4.264003753662109,-16.52714729309082,4.93131685256958
99,-4.292129039764404,-16.68910026550293,4.921950340270996
100,-4.317089557647705,-16.851287841796875,4.905975818634033
101,-4.338027477264404,-17.013593673706055,4.8837690353393555
102,-4.354453086853027,-17.175800323486328,4.855894565582275
103,-4.365956783294678,-17.337675094604492,4.824263572692871
104,-4.372226238250732,-17.4990234375,4.82585334777832
105,-4.378242015838623,-17.66033172607422,4.834132671356201
106,-4.387948989868164,-17.82142448425293,4.831447124481201
107,-4.401034832000732,-17.9820499420166,4.827266216278076
108,-4.412831783294678,-18.142637252807617,4.815891265869141
109,-4.420937538146973,-18.303144454956055,4.796565532684326
110,-4.424706935882568,-18.463319778442383,4.771446228027344
111,-4.423652172088623,-18.62289047241211,4.7420973777771
112,-4.41748046875,-18.781600952148438,4.747560501098633
113,-4.411660194396973,-18.940332412719727,4.756518840789795
114,-4.409550666809082,-19.099140167236328,4.754132270812988
115,-4.410878658294678,-19.257715225219727,4.750363826751709
116,-4.414316177368164,-19.416093826293945,4.745565891265869
117,-4.418671607971191,-19.574275970458984,4.740096092224121
118,-4.423476696014404,-19.73224639892578,4.73403787612915
119,-4.428398132324219,-19.890018463134766,4.727960586547852
120,-4.433476448059082,-20.047557830810547,4.724799156188965
121,-4.438535213470459,-20.205018997192383,4.7320451736450195
122,-4.443710803985596,-20.362733840942383,4.753571033477783
123,-4.448886394500732,-20.521190643310547,4.785983085632324
124,-4.454179763793945,-20.680761337280273,4.824126243591309
125,-4.45947265625,-20.84162139892578,4.865490436553955
126,-4.464863300323486,-21.00386619567871,4.908133029937744
127,-4.470253944396973,-21.167537689208984,4.951874732971191
128,-4.475761413574219,-21.33265495300293,4.993852615356445
129,-4.478906154632568,-21.499237060546875,5.029818534851074
130,-4.478378772735596,-21.667089462280273,5.062536716461182
131,-4.471581935882568,-21.83558464050293,5.086265563964844
132,-4.462226390838623,-22.005292892456055,5.119801998138428
133,-4.446991920471191,-22.176054000854492,5.133669376373291
134,-4.434609413146973,-22.347089767456055,5.195971965789795
135,-4.424530982971191,-22.520273208618164,5.162203788757324
136,-4.417070388793945,-22.692129135131836,5.1561455726623535
137,-4.410312175750732,-22.863807678222656,5.1465888023376465
138,-4.404003620147705,-23.035175323486328,5.140398025512695
139,-4.398086071014404,-23.20634651184082,5.13267707824707
140,-4.392265319824219,-23.37726593017578,5.127768039703369
141,-4.386620998382568,-23.548046112060547,5.120906352996826
142,-4.380918025970459,-23.718612670898438,5.116145610809326
143,-4.375351428985596,-23.889022827148438,5.109661102294922
144,-4.369668006896973,-24.05921745300293,5.104856014251709
145,-4.364081859588623,-24.229276657104492,5.098613739013672
146,-4.358378887176514,-24.399120330810547,5.093905448913574
147,-4.352792739868164,-24.56880760192871,5.08795690536499
148,-4.347070217132568,-24.738319396972656,5.083521842956543
149,-4.341464519500732,-24.90767478942871,5.077837944030762
150,-4.33572244644165,-25.07681655883789,5.073750972747803
151,-4.330097675323486,-25.245859146118164,5.068512439727783
152,-4.324336051940918,-25.41470718383789,5.065202713012695
153,-4.318691253662109,-25.58347511291504,5.0605950355529785
154,-4.312910079956055,-25.7520694732666,5.058088302612305
155,-4.307246208190918,-25.920604705810547,5.054129123687744
156,-4.301445007324219,-26.0889835357666,5.052485942840576
157,-4.295742034912109,-26.257343292236328,5.0493574142456055
158,-4.289921760559082,-26.425565719604492,5.048817157745361
159,-4.284218788146973,-26.593807220458984,5.046629428863525
160,-4.278378963470459,-26.761953353881836,5.047238826751709
161,-4.272616863250732,-26.930116653442383,5.046781063079834
162,-4.266738414764404,-27.09827995300293,5.051750183105469
163,-4.260937213897705,-27.266620635986328,5.056772232055664
164,-4.255038738250732,-27.435115814208984,5.069003582000732
165,-4.249160289764404,-27.604042053222656,5.082982063293457
166,-4.243242263793945,-27.7734375,5.105472087860107
167,-4.237265586853027,-27.943613052368164,5.132710933685303
168,-4.23123025894165,-28.11470603942871,5.170638084411621
169,-4.225136756896973,-28.28708839416504,5.21840763092041
170,-4.219003677368164,-28.46109390258789,5.2835235595703125
171,-4.21414041519165,-28.63734245300293,5.3723273277282715
172,-4.208320140838623,-28.816600799560547,5.478771209716797
173,-4.202402114868164,-28.999433517456055,5.5965118408203125
174,-4.196406364440918,-29.186248779296875,5.713045597076416
175,-4.189921855926514,-29.376893997192383,5.832557678222656
176,-4.183613300323486,-29.571502685546875,5.949099063873291
177,-4.1767578125,-29.769941329956055,6.068031311035156
178,-4.170097351074219,-29.97234344482422,6.183973789215088
179,-4.162909984588623,-30.178573608398438,6.302252292633057
180,-4.155956745147705,-30.388729095458984,6.417558670043945
181,-4.1484375,-30.60269546508789,6.535166263580322
182,-4.141191482543945,-30.820585250854492,6.64982795715332
183,-4.133339881896973,-31.042245864868164,6.766748428344727
184,-4.125800609588623,-31.267812728881836,6.8807549476623535
185,-4.117636680603027,-31.497148513793945,6.996965408325195
186,-4.109804630279541,-31.730369567871094,7.110293865203857
187,-4.101327896118164,-31.967342376708984,7.225776195526123
188,-4.093203067779541,-32.20816421508789,7.33841609954834
189,-4.084414005279541,-32.45271301269531,7.453154563903809
190,-4.075976371765137,-32.70109176635742,7.565088272094727
191,-4.066874980926514,-32.953182220458984,7.679067134857178
192,-4.05810546875,-33.20907974243164,7.790284633636475
193,-4.048710823059082,-33.46868896484375,7.903491497039795
194,-4.039648532867432,-33.73207092285156,8.013980865478516
195,-4.029941082000732,-33.99909973144531,8.126408576965332
196,-4.020566463470459,-34.269901275634766,8.23616886138916
197,-4.010546684265137,-34.544315338134766,8.347830772399902
198,-4.000859260559082,-34.822479248046875,8.456335067749023
199,-3.991933584213257,-35.10427474975586,8.568325996398926
200,-3.98248028755188,-35.38982391357422,8.676105499267578
201,-3.9725193977355957,-35.678924560546875,8.785737991333008
202,-3.962831974029541,-35.9716796875,8.893454551696777
203,-3.9524998664855957,-36.268028259277344,9.00294017791748
204,-3.9425389766693115,-36.56802749633789,9.110007286071777
205,-3.9319140911102295,-36.87158203125,9.21882438659668
206,-3.9216601848602295,-37.178768157958984,9.32525634765625
207,-3.910781145095825,-37.48950958251953,9.433405876159668
208,-3.9002342224121094,-37.80384826660156,9.539055824279785
209,-3.8890624046325684,-38.12169647216797,9.645909309387207
210,-3.8782031536102295,-38.44312286376953,9.749398231506348
211,-3.8667380809783936,-38.767967224121094,9.852560043334961
212,-3.856386661529541,-39.09628677368164,9.94483470916748
213,-3.849257707595825,-39.42775344848633,10.032013893127441
214,-3.846308469772339,-39.76222610473633,10.114365577697754
215,-3.840097665786743,-40.09929656982422,10.193684577941895
216,-3.8342771530151367,-40.439022064208984,10.261611938476562
217,-3.8279101848602295,-40.780975341796875,10.32142448425293
218,-3.822031259536743,-41.12491989135742,10.370284080505371
219,-3.8159375190734863,-41.4704475402832,10.409663200378418
220,-3.810292959213257,-41.817283630371094,10.435461044311523
221,-3.804433584213257,-42.164939880371094,10.450934410095215
222,-3.7989842891693115,-42.51312255859375,10.451879501342773
223,-3.793281078338623,-42.86126708984375,10.443756103515625
224,-3.7879881858825684,-43.20915985107422,10.425691604614258
225,-3.78228497505188,-43.55640411376953,10.404366493225098
226,-3.7772068977355957,-43.90298843383789,10.37719440460205
227,-3.7714452743530273,-44.24864959716797,10.349377632141113
228,-3.766484260559082,-44.59341812133789,10.31637954711914
229,-3.7607617378234863,-44.93708801269531,10.279891967773438
230,-3.7591991424560547,-45.27960968017578,10.232463836669922
231,-3.7616796493530273,-45.62054443359375,10.200733184814453
232,-3.7642576694488525,-45.960487365722656,10.152838706970215
233,-3.7649803161621094,-46.29878616333008,10.108799934387207
234,-3.7664647102355957,-46.635623931884766,10.060627937316895
235,-3.767343759536743,-46.97087860107422,10.011110305786133
236,-3.7690625190734863,-47.30449295043945,9.956048011779785
237,-3.770390510559082,-47.63624954223633,9.89903450012207
238,-3.7724609375,-47.96613311767578,9.834369659423828
239,-3.774179697036743,-48.293846130371094,9.767643928527832
240,-3.776484251022339,-48.61931610107422,9.69294261932373
241,-3.7784178256988525,-48.94230270385742,9.615445137023926
242,-3.780898332595825,-49.2626953125,9.528430938720703
243,-3.782949209213257,-49.58019256591797,9.436704635620117
244,-3.785527229309082,-49.89460754394531,9.335745811462402
245,-3.7876172065734863,-50.20566177368164,9.231649398803711
246,-3.790214776992798,-50.513240814208984,9.120924949645996
247,-3.7923240661621094,-50.8171272277832,9.008878707885742
248,-3.7949414253234863,-51.11728286743164,8.891758918762207
249,-3.797050714492798,-51.41353225708008,8.770127296447754
250,-3.8032031059265137,-51.70570373535156,8.640581130981445
251,-3.813300609588623,-51.99345397949219,8.509004592895508
252,-3.828242063522339,-52.27667999267578,8.366313934326172
253,-3.8479490280151367,-52.55486297607422,8.256331443786621
254,-3.865957021713257,-52.82945251464844,8.141671180725098
255,-3.8816404342651367,-53.10034942626953,8.083630561828613
256,-3.897597551345825,-53.36943054199219,7.962428569793701
257,-3.9128124713897705,-53.63441467285156,7.87055778503418
258,-3.9288084506988525,-53.89632797241211,7.823451995849609
259,-3.944218635559082,-54.15683364868164,7.700780391693115
260,-3.9606640338897705,-54.412986755371094,7.657230854034424
261,-3.9770896434783936,-54.667850494384766,7.532288551330566
262,-3.9939451217651367,-54.918338775634766,7.467320442199707
263,-4.007030963897705,-55.16701126098633,7.349311351776123
264,-4.016464710235596,-55.411834716796875,7.27822732925415
265,-4.021816253662109,-55.65458679199219,7.143434524536133
266,-4.022792816162109,-55.8928108215332,7.044946670532227
267,-4.02197265625,-56.12777328491211,6.952579975128174
268,-4.024355411529541,-56.35956954956055,6.876700401306152
269,-4.027304649353027,-56.58884811401367,6.818587303161621
270,-4.031093597412109,-56.81624984741211,6.770602226257324
271,-4.034843444824219,-57.04206848144531,6.746984481811523
272,-4.039355278015137,-57.267147064208984,6.7244391441345215
273,-4.043066501617432,-57.49150085449219,6.705677509307861
274,-4.044745922088623,-57.71525192260742,6.686795711517334
275,-4.042695045471191,-57.93839645385742,6.672125816345215
276,-4.044804573059082,-58.16097640991211,6.64579963684082
277,-4.045331954956055,-58.38265609741211,6.634815692901611
278,-4.04736328125,-58.60396194458008,6.622724533081055
279,-4.048242092132568,-58.82486343383789,6.615967750549316
280,-4.050312519073486,-59.0455436706543,6.605384826660156
281,-4.051171779632568,-59.265838623046875,6.601249694824219
282,-4.053203105926514,-59.48601531982422,6.593432903289795
283,-4.054003715515137,-59.70591735839844,6.592026233673096
284,-4.055956840515137,-59.92573928833008,6.58679723739624
285,-4.056718826293945,-60.145389556884766,6.58832311630249
286,-4.058613300323486,-60.36509704589844,6.5859551429748535
287,-4.05935525894165,-60.58472442626953,6.590652942657471
288,-4.061191082000732,-60.80451202392578,6.591346263885498
289,-4.061933517456055,-61.024295806884766,6.599343299865723
290,-4.063710689544678,-61.244354248046875,6.6034674644470215
291,-4.064472675323486,-61.464569091796875,6.6155219078063965
292,-4.066210746765137,-61.68517303466797,6.624918460845947
293,-4.066992282867432,-61.90609359741211,6.6417131423950195
294,-4.06591796875,-62.12759780883789,6.659050941467285
295,-4.0615234375,-62.349666595458984,6.667689800262451
296,-4.053027153015137,-62.57193374633789,6.69211483001709
297,-4.040585994720459,-62.794921875,6.721739768981934
298,-4.027187347412109,-63.01880645751953,6.778356075286865
299,-4.01589822769165,-63.244686126708984,6.855744361877441
300,-4.005566120147705,-63.47323989868164,6.9326677322387695
301,-3.995312452316284,-63.70437240600586,7.027595043182373
302,-3.985468626022339,-63.9387092590332,7.126605033874512
303,-3.975351572036743,-64.17634582519531,7.228519916534424
304,-3.965468645095825,-64.4173583984375,7.3275980949401855
305,-3.9551169872283936,-64.66165924072266,7.4291300773620605
306,-3.944960832595825,-64.90931701660156,7.528316974639893
307,-3.9342968463897705,-65.1602554321289,7.629772186279297
308,-3.9248242378234863,-65.41460418701172,7.723875522613525
309,-3.9181249141693115,-65.67214965820312,7.820807456970215
310,-3.9150779247283936,-65.93304443359375,7.91912317276001
311,-3.9089841842651367,-66.19709014892578,8.016359329223633
312,-3.9031639099121094,-66.46437072753906,8.116713523864746
313,-3.8964648246765137,-66.7349624633789,8.219046592712402
314,-3.890078067779541,-67.00897979736328,8.319193840026855
315,-3.8831052780151367,-67.28632354736328,8.42147159576416
316,-3.8765623569488525,-67.56708526611328,8.521394729614258
317,-3.8694725036621094,-67.85115051269531,8.623472213745117
318,-3.86279296875,-68.13863372802734,8.72319221496582
319,-3.855605363845825,-68.42941284179688,8.825007438659668
320,-3.848808526992798,-68.7236099243164,8.924518585205078
321,-3.8414647579193115,-69.0210952758789,9.02602767944336
322,-3.8344922065734863,-69.32196807861328,9.12522029876709
323,-3.8269920349121094,-69.62615203857422,9.222185134887695
324,-3.8231053352355957,-69.93363189697266,9.315316200256348
325,-3.822343587875366,-70.2442398071289,9.416753768920898
326,-3.822031259536743,-70.55821990966797,9.509587287902832
